altitude,velocity,time
0.6080854028542997,12.159825290869613,0.10001999999999392
2.4318201402898003,24.310439161543993,0.20003000000005927
5.4700055685331685,36.44508255391169,0.3000400000001593
9.720647393528989,48.55582245627865,0.4000500000002593
15.180960899149284,60.634788445174095,0.500060000000359
21.847378226088953,72.67419300704589,0.6000699999999038
29.715557661135506,84.66635140185751,0.7000799999994487
38.7803948856395,96.60370096224463,0.8000899999989936
49.03603612163824,108.47881972719827,0.9000999999985384
60.47589310428066,120.28444431540161,1.0001099999980845
73.09265980005185,132.01348695033622,1.1001199999987397
86.8783307818943,143.65905155696987,1.2001299999993948
101.82422116470441,155.21444885808586,1.30014000000005
117.92098799792626,166.6732104071388,1.4001500000007052
135.15865300611065,178.0291015036275,1.5001600000013604
153.52662656336415,189.27613294639423,1.6001700000020156
173.01373278365244,200.40857158979597,1.7001800000026708
193.6082356058524,211.4209496772903,1.800190000003326
215.297865750437,222.30807293641243,1.9002000000039811
238.06984842347956,233.06502742847871,2.0002100000046363
261.9109316435012,243.68718515531188,2.1002200000052915
286.80741506731886,254.17020843393132,2.2002300000059467
312.74517919255874,264.51005305835355,2.300240000006602
339.70971481683114,274.70297027523367,2.400250000007257
367.68615263656767,284.74550760723656,2.5002600000079123
396.6592928722282,294.6345085643785,2.6002700000085675
426.6136348109441,304.367111289365,2.7002800000092226
457.53340616248954,313.9407461880604,2.800290000009878
489.4025921298303,323.35313260053454,2.900300000010533
522.2049641012161,332.6022745718234,3.000310000011188
555.9241078768762,341.68645578438986,3.1003200000118434
590.5434513496482,350.6042337166645,3.2003300000124986
626.046291565466,359.3544330934464,3.3003400000131538
662.4158210962081,367.9361386950285,3.400350000013809
699.6351536640598,376.3486875920856,3.500360000014464
737.6873489634341,384.5916608732103,3.6003700000151193
776.5554366329003,392.6648749311642,3.7003800000157745
816.2224393363442,400.56837237266404,3.8003900000164297
856.6713949187716,408.30241261480126,3.900400000017085
897.885377608585,415.86746222915673,4.000410000017721
939.8475182439917,423.26418509229586,4.100420000013935
982.5410235070781,430.49343239856177,4.200430000010149
1025.9491941543224,437.556232588248,4.300440000006363
1070.0554422377172,444.45378124111005,4.400450000002577
1114.8433073154233,451.187430981928,4.500459999998791
1160.296471655206,457.7586814414813,4.6004699999950045
1206.3987744384394,464.16916931293883,4.700479999991218
1253.134224975818,470.4206585402358,4.800489999987432
1300.4870149499143,476.51503067152544,4.900499999983646
1348.4415297024716,482.4542754075941,5.00050999997986
1396.9823585872377,488.2404813716382,5.100519999976074
1446.0943044118283,493.87582712369885,5.200529999972288
1495.7623919940088,499.36257243997375,5.3005399999685014
1545.9718758597207,504.703049874115,5.400549999964715
1596.708247111967,509.89965661496086,5.500559999960929
1647.9572395006112,514.954846652312,5.600569999957143
1699.7048347245754,519.871123259886,5.700579999953357
1751.9372669982888,524.6510318023555,5.800589999949571
1804.6410269152523,529.2971528708349,5.9005999999457845
1857.8028646416205,533.8120957495698,6.000609999941998
1911.409792472973,538.1984922144021,6.100619999938212
1965.449086787345,542.4589906620605,6.200629999934426
2019.9082894277121,546.5962505676624,6.30063999993064
2074.77520854631,550.6129372666397,6.400649999926854
2130.037918943183,554.5117170557621,6.500659999923068
2185.6847619303435,558.2952526072007,6.6006699999192815
2241.7043447528717,561.966198688386,6.700679999915495
2298.0690525565215,563.2780870032879,6.800689999911709
2353.8183059196203,551.6527748064545,6.900699999907923
2408.422152832079,540.3693982903451,7.000709999904137
2461.9139436765868,529.41120970809,7.100719999900351
2514.325407708969,518.7625230678983,7.200729999896565
2565.6867550185384,508.40863097671985,7.300739999892778
2616.0267705639617,498.3357291730479,7.400749999888992
2665.3729010115903,488.5308479318018,7.500759999885206
2713.7513350267527,478.98178962196175,7.60076999988142
2761.1870776011197,469.67707178241625,7.700779999877634
2807.7040189394143,460.60587515521786,7.800789999873848
2853.324998375768,451.75799617954414,7.9007999998700615
2898.07186374352,443.1238035058726,8.000809999866275
2941.965526580356,434.69419813874214,8.10081999986249
2985.0260135144,426.4605768595927,8.200829999858703
3027.2725141427204,418.41479861883835,8.300839999854917
3068.7234256858196,410.54915361956216,8.40084999985113
3109.396394674125,402.85633484451137,8.500859999847345
3149.308355899713,395.3294118038396,8.600869999843558
3188.475568845167,387.9618063040027,8.700879999839772
3226.9136517826832,380.74727005837207,8.800889999835986
3264.6376137191646,373.6798639781546,8.9008999998322
3301.6618843481974,366.7539389981317,9.000909999828414
3338.0003421555493,359.96411830598373,9.100919999824628
3373.6663408127047,353.30528085659347,9.200929999820842
3408.672733981325,346.77254606405546,9.300939999817055
3443.031898641599,340.3612595742633,9.40094999981327
3476.7557570478953,334.06698002987537,9.500959999809483
3509.8557974073115,327.885466747724,9.600969999805697
3542.3430933681643,321.81266823593796,9.70097999980191
3574.228322399314,315.84471148457044,9.800989999798125
3605.5217831347513,309.97789196945024,9.900999999794339
3636.233411751534,304.2086643143089,10.001009999790552
3666.3727974449307,298.5336335609356,10.101019999786766
3695.949197058751,292.94954700152465,10.20102999978298
3724.9715489254213,287.4532865312201,10.301039999779194
3753.448485965264,282.04186148244946,10.401049999775408
3781.388348092134,276.7124019058004,10.501059999771622
3808.7991939677668,271.4621522651526,10.601069999767835
3835.6888121452243,266.2884655173385,10.70107999976405
3862.0647316382083,261.1887975490995,10.801089999760263
3887.9342319508733,256.1607019462229,10.901099999756477
3913.3043526001484,251.20182507174795,11.00110999975269
3938.181902160353,246.30990143195874,11.101119999748905
3962.5734668579707,241.48274931050466,11.201129999745119
3986.4854187424394,236.7182666525278,11.301139999741332
4009.9239234570377,232.01442718206,11.401149999737546
4032.8949476325706,227.36927673718014,11.50115999973376
4055.4042659247693,222.78092980861356,11.601169999729974
4077.4574677151604,218.24756626850785,11.701179999726188
4099.05996349374,213.76742827707847,11.801189999722402
4120.216990940791,209.33881735573559,11.901199999718616
4140.93362072364,204.96009161609135,12.00120999971483
4161.214762024047,200.6296631350286,12.101219999711043
4181.065167809483,196.34599546669696,12.201229999707257
4200.489439862614,192.1076012829275,12.301239999703471
4219.492033580457,187.9130401341778,12.401249999699685
4238.077262555584,183.76091632362758,12.501259999695899
4256.2493029500765,179.64987688756148,12.601269999692112
4274.012197672244,175.5786096756463,12.701279999688326
4291.369860366565,171.54584152513618,12.80128999968454
4308.326079225077,167.55033652339262,12.901299999680754
4324.884520629488,163.59089435355526,13.001309999676968
4341.048732631628,159.6663487184481,13.101319999673182
4356.822148280008,155.77556583819262,13.201329999669396
4372.2080887996335,151.91744301723153,13.30133999966561
4387.209766632007,148.0909072767811,13.401349999661823
4401.830288341179,144.29491404895725,13.501359999658037
4416.0726573922375,140.52844592905035,13.601369999654251
4429.939776807948,136.79051148265938,13.701379999650465
4443.434451708367,133.08014410458134,13.801389999646679
4456.559391739186,129.3964009265191,13.901399999642893
4469.317213392921,125.73836177090564,14.001409999639106
4481.710442227687,122.10512814822377,14.10141999963532
4493.741514987912,118.4958222954215,14.201429999631534
4505.412781630511,114.90958625310874,14.301439999627748
4516.726507261123,111.34558097939573,14.401449999623962
4527.684873983001,107.8029854983151,14.501459999620176
4538.289982662611,104.28099608091593,14.60146999961639
4548.54385461498,100.77882545720362,14.701479999612603
4558.448433211362,97.29570205720101,14.801489999608817
4568.005585412803,93.83086927950384,14.901499999605031
4577.217103231515,90.38358478578688,15.001509999601245
4586.084705123092,86.95311981979154,15.101519999597459
4594.61003731186,83.53875854940738,15.201529999593673
4602.794675051484,80.13979743052285,15.301539999589886
4610.640123822777,76.7555445913978,15.4015499995861
4618.147820470991,73.38531923634733,15.501559999582314
4625.31913428491,70.02845106761423,15.601569999578528
4632.155368018189,66.68427972432283,15.701579999574742
4638.657758855827,63.352154237499114,15.801589999570956
4644.827479326806,60.031432500142834,15.90159999956717
4650.665638164697,56.72148075141202,16.001609999563385
4656.173281116872,53.421673074008794,16.1016199995596
4661.351391704453,50.131390903885375,16.201629999555813
4666.20089193363,46.85002255143554,16.301639999552027
4670.722642959608,43.57696273335383,16.40164999954824
4674.917445704504,40.31161211438861,16.501659999544454
4678.7860414295255,37.05337685822929,16.60166999954067
4682.329112262836,33.801668186797876,16.701679999536882
4685.547281683847,30.555901947239196,16.801689999533096
4688.441114964137,27.315498185915416,16.90169999952931
4691.011119566774,24.07988072874228,17.001709999525524
4693.257745503219,20.84847676720963,17.101719999521737
4695.1813856496465,17.620716449446746,17.20172999951795
4696.782376022345,14.396032475711124,17.301739999514165
4698.0609960127185,11.17385969768184,17.40174999951038
4699.017468582751,7.9536347209558595,17.501759999506593
4699.65196042063,4.734795510150829,17.601769999502807
4699.964582056948,1.516780996023917,17.70177999949902
4699.955388305754,-1.7009417526768018,17.801789999495234
4699.624401963749,-4.918348867306271,17.90179999949145
4698.971680874009,-8.134899920654542,18.001809999487662
4697.997338628327,-11.350035502111076,18.101819999483876
4696.701544719061,-14.563197185845388,18.20182999948009
4695.084524421578,-17.773827918249815,18.301839999476304
4693.14655863729,-20.981372403357035,18.401849999472518
4690.887983699031,-24.185277485666667,18.50185999946873
4688.309191137818,-27.384992529821464,18.601869999464945
4685.4106274119795,-30.579969796585328,18.70187999946116
4682.192793599047,-33.7696648145773,18.801889999457373
4678.656245050315,-36.95353674723401,18.901899999453587
4674.801591009383,-40.13104875448045,19.0019099994498
4670.629494194482,-43.301668348602924,19.101919999446014
4666.140670345719,-46.46486774383643,19.20192999944223
4661.33588773775,-49.62012419918163,19.301939999438442
4656.215966658249,-52.76692035400395,19.401949999434656
4650.78177885336,-55.90474455596325,19.50195999943087
4645.034246940862,-59.03309118085659,19.601969999427084
4638.974343791618,-62.15146094396595,19.701979999423298
4632.603091880289,-65.25936120253357,19.80198999941951
4625.921562606358,-68.3563062489945,19.901999999415725
4618.930875586408,-71.44181759463443,20.00200999941194
4611.632197918206,-74.51542424334191,20.102019999408153
4604.026743418214,-77.5766629551737,20.202029999404367
4596.115771833016,-80.62507849945119,20.30203999940058
4587.900588026402,-83.66022389713696,20.402049999396795
4579.38254114215,-86.68166065227564,20.50205999939301
4570.563023744719,-89.68895897229032,20.602069999389222
4561.443470937917,-92.68169797695613,20.702079999385436
4552.025359464305,-95.65946589590722,20.80208999938165
4542.310206784066,-98.62186025453717,20.902099999377864
4532.299570136805,-101.56848804819684,21.002109999374078
4521.99504558619,-104.49896590460779,21.10211999937029
4511.398267049031,-107.412920234428,21.202129999366505
4500.510905309937,-110.30998736994057,21.30213999936272
4489.334667022419,-113.1898136918601,21.402149999358933
4477.871293698052,-116.05205574426013,21.502159999355147
4466.122560685137,-118.89638033765729,21.60216999935136
4454.090276137049,-121.72246464031204,21.702179999347575
4441.7762799723,-124.52999625781959,21.80218999934379
4429.182442827103,-127.31867330108956,21.902199999340002
4416.310665002039,-130.08820444282233,22.002209999336216
4403.162875403264,-132.83830896263117,22.10221999933243
4389.741030480095,-135.56871678095607,22.202229999328644
4376.047113159304,-138.27916848193368,22.302239999324858
4362.083131778252,-140.96941532542712,22.40224999932107
4347.851119016845,-143.63921924839178,22.502259999317285
4333.353130830147,-146.28835285583247,22.6022699993135
4318.591245382339,-148.9165994015362,22.702279999309713
4303.567561983192,-151.52375275887076,22.802289999305927
4288.284200027744,-154.10961738187484,22.90229999930214
4272.743297940575,-156.67400825691053,23.002309999298355
4256.947012125139,-159.21675084517142,23.10231999929457
4240.897515919613,-161.73768101630978,23.202329999290782
4224.5969985594975,-164.23664497350225,23.302339999286996
4208.047664148134,-166.71349917023676,23.40234999928321
4191.251730636344,-169.168110219136,23.502359999279424
4174.211428811152,-171.600354793133,23.602369999275638
4156.929001294773,-174.01011951931665,23.70237999927185
4139.406701554989,-176.3973008657611,23.802389999268065
4121.646792926683,-178.7618050216919,23.90239999926428
4103.651547645747,-181.10354777127242,24.002409999260493
4085.42324589651,-183.42245436138867,24.102419999256707
4066.964174871775,-185.71845936371733,24.20242999925292
4048.276627847573,-187.99150653143872,24.302439999249135
4029.36290327228,-190.24154865091234,24.40244999924535
4010.225303870836,-192.46854738863271,24.502459999241562
3990.866135764404,-194.67247313380724,24.602469999237776
3971.2877076061277,-196.85330483686351,24.70247999923399
3951.4923297330874,-199.01102984421402,24.802489999230204
3931.482313335122,-201.14564372958034,24.902499999226418
3911.259969640453,-203.25715012221315,25.00250999922263
3890.8276091189105,-205.34556053227595,25.102519999218845
3870.187540702436,-207.41089417371776,25.20252999921506
3849.3420710237097,-209.45317778492424,25.302539999211273
3828.293503672627,-211.47244544742966,25.402549999207487
3807.0441384710316,-213.46873840296195,25.5025599992037
3785.5962707658364,-215.4421048691212,25.602569999199915
3763.952190740694,-217.39259985392388,25.70257999919613
3742.114182746099,-219.320284969495,25.802589999192342
3720.0845246483086,-221.2252282451546,25.902599999188556
3697.8654871969206,-223.1075039401286,26.00260999918477
3675.4593334111437,-224.96719235613304,26.102619999180984
3652.868317984913,-226.804379650057,26.202629999177198
3630.0946867107023,-228.6191576469517,26.30263999917341
3607.1406759218457,-230.41162365354208,26.402649999169626
3584.0085119537507,-232.18188027246066,26.50265999916584
3560.700410623433,-233.93003521739948,26.602669999162053
3537.2185767275228,-235.6562011293527,26.702679999158267
3513.5652035587027,-237.36049539414256,26.80268999915448
3489.742472440246,-239.04303996136105,26.902699999150695
3465.752552278502,-240.70396116494442,27.00270999914691
3441.5975991333194,-242.34338954545197,27.102719999143122
3417.279755806284,-243.96145967426662,27.202729999139336
3392.8011514461423,-245.55830997977753,27.30273999913555
3368.163901171727,-247.13408257574417,27.402749999131764
3343.3701057118897,-248.68892309188536,27.502759999127978
3318.421851062247,-250.222980506856,27.60276999912419
3293.321208158397,-251.73640698367655,27.702779999120406
3268.070232565775,-253.22935770772636,27.80278999911662
3242.670964185167,-254.70199072739393,27.902799999112833
3217.1254269743545,-256.15446679742195,28.002809999109047
3191.4356286851753,-257.58694922507766,28.10281999910526
3165.6035606157234,-258.99960371914653,28.202829999101475
3139.6311973777347,-260.39259824188423,28.30283999909769
3113.5204966783776,-261.7661028638783,28.402849999093903
3087.2733991165833,-263.1202896219688,28.502859999090116
3060.8918279933932,-264.4553323801903,28.60286999908633
3034.37768913596,-265.7714066938062,28.702879999082544
3007.732870735218,-267.06868967644095,28.802889999078758
2980.959243196435,-268.3473598703555,28.90289999907497
2954.058659002722,-269.60759711984934,29.002909999071186
2927.0329525910233,-270.84958244783684,29.1029199990674
2899.8839402402887,-272.07349793557785,29.202929999063613
2872.6134199714743,-273.2795266055762,29.302939999059827
2845.223171459156,-274.46785230764607,29.40294999905604
2817.7149559543404,-275.6386596081271,29.502959999052255
2790.090516218294,-276.7921336822501,29.60296999904847
2762.3515764667377,-277.92846020964896,29.702979999044683
2734.49984232462,-279.0478252729519,29.802989999040896
2706.5370007907713,-280.15041525951807,29.90299999903711
2678.4647202120896,-281.2364167661929,30.003009999033324
2650.2846502674,-282.3060165071506,30.103019999029538
2621.9984219600046,-283.35940122473204,30.203029999025752
2593.6076476193757,-284.3967576032557,30.303039999021966
2565.113920910971,-285.4182721858015,30.40304999901818
2536.518816854634,-286.4241312938924,30.503059999014393
2507.8238918503857,-287.4145209500384,30.603069999010607
2479.0306837122807,-288.3896268031381,30.70307999900682
2450.140711709229,-289.34963405665764,30.803089999003035
2421.155476613207,-290.2947273995512,30.90309999899925
2392.0764607538604,-291.22509093990914,31.003109998995463
2362.9051280799345,-292.14090814120954,31.103119998991676
2333.642924226834,-293.0423617612488,31.20312999898789
2304.29127659002,-293.92963379357195,31.303139998984104
2274.851594404341,-294.80290541145405,31.403149998980318
2245.325268828783,-295.66235691430893,31.503159998976532
2215.7136730363927,-296.5081676765396,31.603169998972746
2186.0181623093213,-297.34051609872694,31.70317999896896
2156.2400741385086,-298.15957956113306,31.803189998965173
2126.3807283278975,-298.9655343794518,31.903199998961387
2096.4414271031696,-299.75855576278565,32.00320999895874
2066.4234552242715,-300.53881777374505,32.10321999899048
2036.3280801021335,-301.30649329065835,32.20322999902223
2006.1565519187923,-302.06175397182466,32.30323999905397
1975.9101037511507,-302.80477022177166,32.403249999085716
1945.5899516980166,-303.5357111594432,32.50325999911746
1915.1972950100842,-304.2547445882798,32.603269999149205
1884.7333162230145,-304.96203696812944,32.70327999918095
1854.1991812931058,-305.65775338896634,32.803289999212694
1823.5960397355168,-306.3420575463299,32.90329999924444
1792.9250247648968,-307.0151117184463,33.00330999927618
1762.187253438223,-307.6770767449944,33.10331999930793
1731.3838267996377,-308.32811200745425,33.20332999933967
1700.5158300271926,-308.9683754109955,33.30333999937142
1669.5843325814078,-309.59802336786674,33.40334999940316
1638.5903883552505,-310.2172107821947,33.503359999434906
1607.5350358257483,-310.82609103620194,33.60336999946665
1576.419298206767,-311.424815977781,33.703379999498395
1545.2441836030596,-312.013535909366,33.80338999953014
1514.0106851653245,-312.59239957803663,33.903399999561884
1482.7197812461657,-313.1615541668863,34.00340999959363
1451.3724355569752,-313.72114528752047,34.10341999962537
1419.9695973253533,-314.27131697370805,34.20342999965712
1388.5122014531853,-314.8122116761104,34.30343999968886
1357.001168675208,-315.34397025807147,34.40344999972061
1325.43740571791,-315.8667319924037,34.50345999975235
1293.8218054587583,-316.38063455915386,34.603469999784096
1262.1552470854917,-316.88581404428356,34.70347999981584
1230.4385962556646,-317.3824049392697,34.803489999847585
1198.6727052560047,-317.87054014153404,34.90349999987933
1166.858413161869,-318.35035095573005,35.003509999911074
1134.9965459963382,-318.8219670957812,35.10351999994282
1103.0879168892689,-319.2855166876961,35.20352999997456
1071.133326235861,-319.74112627310524,35.30354000000631
1039.1335618549506,-320.1889208134765,35.40355000003805
1007.0893991467677,-320.6290236949942,35.5035600000698
975.0016012502405,-321.06155673406766,35.60357000010154
942.8709191996575,-321.4866401834376,35.703580000133286
910.6980920807727,-321.9043927388448,35.80359000016503
